"F [GHz]","Qdiff []","Ldiff []"
0,0,
0.05,0.808221302339503,3.86967895368629
0.1,1.57126213712022,3.83847632553214
0.15,2.28728026944524,3.82263144374075
0.2,2.94819767089407,3.80595244715383
0.25,3.55786930951855,3.78995089976052
0.3,4.1214264002178,3.77511539695406
0.35,4.64391540660947,3.76148328766977
0.4,5.1302410082315,3.74896260242924
0.45,5.58518969996549,3.73745681001403
0.5,6.01333250661989,3.72689622021975
0.55,6.41888039885662,3.71723630663733
0.6,6.80556366856627,3.70844832091741
0.65,7.17656216390773,3.70051071687813
0.7,7.53448497099721,3.69340331672576
0.75,7.88138736628356,3.68710400590068
0.8,8.21881171445423,3.68158725489683
0.85,8.54784152327796,3.67682380954102
0.9,8.86916108342728,3.67278105696072
0.95,9.18311585465781,3.66942373309137
1,9.48977073858991,3.66671475872088
1.05,9.79288405002196,3.66436178585091
1.1,10.0903723200975,3.66257996339309
1.15,10.3823620402679,3.6613288471994
1.2,10.6689530975075,3.66057259683529
1.25,10.9502266814979,3.66027957630608
1.3,11.2262505339262,3.66042193217245
1.35,11.4970823934199,3.66097517960129
1.4,11.762772233533,3.66191781343363
1.45,12.0233637077328,3.66323095274214
1.5,12.278895085093,3.6648980219871
1.55,12.529399868564,3.6669044686639
1.6,12.7749072235714,3.66923751552008
1.65,13.0154423001188,3.6718859444842
1.7,13.2510265011126,3.67483990907767
1.75,13.4816777288947,3.67809077203481
1.8,13.7074106281274,3.68163096500364
1.85,13.9282368342129,3.68545386744833
1.9,14.1441652306429,3.68955370216341
1.95,14.3552022152261,3.69392544510823
2,14.5613519731746,3.69856474755996
2.05,14.7626167540326,3.70346786884747
2.1,14.9589971491209,3.70863161817085
2.15,15.1504923662057,3.7140533042223
2.2,15.3371004984057,3.7197306915117
2.25,15.5188187847351,3.72566196245972
2.3,15.6956438601341,3.73184568446059
2.35,15.8675719933032,3.73828078123572
2.4,16.0345993110567,3.74496650789961
2.45,16.196722008309,3.75190242924615
2.5,16.3539365431475,3.75908840083666
2.55,16.5062398167149,3.76652455253238
2.6,16.6536293378819,3.77421127416795
2.65,16.7961033728781,3.78214920310546
2.7,16.9336610802029,3.79033921344852
2.75,17.0663026312785,3.7987824067256
2.8,17.1940293173719,3.80748010388187
2.85,17.3168436434019,3.81643383843953
2.9,17.4347494092977,3.8256453507086
2.95,17.547751779572,3.83511658294533
3,17.6558573418303,3.84484967537144
3.05,17.7590741549002,3.85484696297865
3.1,17.8574117872956,3.86511097305447
3.15,17.9508813466833,3.8756444233741
3.2,18.0394955010239,3.8864502210116
3.25,18.1232684920288,3.89753146172994
3.3,18.2022161415523,3.90889142991662
3.35,18.2763558514969,3.92053359903562
3.4,18.345706597811,3.93246163257233
3.45,18.4102889190865,3.94467938545179
3.5,18.4701249002859,3.95719090591393
3.55,18.5252381520436,3.97000043783395
3.6,18.5756537860039,3.9831124234776
3.65,18.6213983866171,3.99653150668548
3.7,18.6624999797588,4.01026253648154
3.75,18.6989879985661,4.02431057110446
3.8,18.7308932468091,4.03868088246227
3.85,18.7582478601285,4.05337896101284
3.9,18.7810852654218,4.06841052107488
3.95,18.7994401386616,4.08378150657609
4,18.8133483613905,4.09949809724687
4.05,18.8228469761317,4.11556671527027
4.1,18.8279741409327,4.13199403239998
4.15,18.8287690832367,4.14878697756108
4.2,18.8252720532712,4.16595274494909
4.25,18.8175242771181,4.18349880264562
4.3,18.8055679096282,4.20143290177049
4.35,18.7894459873128,4.21976308619241
4.4,18.7692023813502,4.23849770282214
4.45,18.7448817508232,4.25764541251483
4.5,18.7165294962972,4.27721520161005
4.55,18.6841917138326,4.29721639414056
4.6,18.6479151495276,4.31765866474378
4.65,18.607747154665,4.3385520523123
4.7,18.5637356415396,4.35990697442286
4.75,18.5159290400265,4.38173424258627
4.8,18.4643762549527,4.40404507836404
4.85,18.4091266243169,4.42685113040129
4.9,18.3502298784042,4.45016449242886
4.95,18.2877360998396,4.47399772229198
5,18.2216956846022,4.4983638620672
5.05,18.1521593040408,4.52327645933388
5.1,18.0791778679056,4.54874958967182
5.15,18.0028024884208,4.57479788046195
5.2,17.9230844454091,4.60143653607308
5.25,17.8400751524846,4.62868136452419
5.3,17.7538261243192,4.6565488057186
5.35,17.6643889449881,4.68505596135404
5.4,17.5718152373974,4.71422062662079
5.45,17.4761566337933,4.74406132380922
5.5,17.3774647473489,4.77459733795748
5.55,17.2757911448257,4.80584875468082
5.6,17.1711873203003,4.83783650033579
5.65,17.0637046699475,4.87058238468465
5.7,16.9533944678711,4.90410914623969
5.75,16.8403078429684,4.93844050048165
5.8,16.7244957568132,4.97360119116315
5.85,16.6060089825457,5.00961704492603
5.9,16.4848980847509,5.04651502948115
5.95,16.3612134003087,5.08432331562078
6,16.2350050201974,5.12307134335763
6.05,16.1063227722337,5.16278989251052
6.1,15.9752162047262,5.20351115808554
6.15,15.8417345710266,5.24526883083303
6.2,15.7059268149534,5.28809818339579
6.25,15.5678415570725,5.33203616250208
6.3,15.4275270818074,5.37712148770002
6.35,15.2850313253638,5.42339475717628
6.4,15.1404018644407,5.47089856125474
6.45,14.9936859057107,5.5196776042279
6.5,14.8449302760463,5.56977883523814
6.55,14.6941814134683,5.62125158899704
6.6,14.5414853587975,5.67414773720969
6.65,14.3868877479856,5.72852185165952
6.7,14.2304338051041,5.78443138000682
6.75,14.0721683359707,5.84193683546406
6.8,13.9121357223898,5.90110200163325
6.85,13.7503799169876,5.96199415392813
6.9,13.5869444386203,6.02468429915686
6.95,13.4218723683349,6.08924743501387
7,13.2552063458613,6.15576283142284
7.05,13.0869885666172,6.22431433589062
7.1,12.9172607792053,6.29499070527762
7.15,12.7460642833827,6.36788596666718
7.2,12.5734399284851,6.44309981032943
7.25,12.3994281122855,6.52073801812994
7.3,12.2240687802707,6.60091293113464
7.35,12.0474014253166,6.68374396061942
7.4,11.8694650877449,6.76935814721088
7.45,11.6902983557452,6.85789077347614
7.5,11.5099393661449,6.94948603595364
7.55,11.3284258055104,7.0442977833874
7.6,11.1457949115652,7.1424903288094
7.65,10.962083474908,7.24423934412661
7.7,10.7773278410163,7.34973284703108
7.75,10.591563912522,7.45917229138964
7.8,10.4048271517426,7.57277377381145
7.85,10.2171525834564,7.69076937087321
7.9,10.0285747979074,7.8134086235428
7.95,9.83912795402681,7.94096018773139
8,9.6488457828591,8.07371367267821
8.05,9.45776159117998,8.21198169210021
8.1,9.2659082652948,8.3561021567997
8.15,9.07331827500608,8.50644084181387
8.2,8.88002367773864,8.66339426632343
8.25,8.68605612281253,8.82739293054885
8.3,8.4914468558523,8.99890496091114
8.35,8.29622672332392,9.17844022300929
8.4,8.1004261771885,9.36655497169066
8.45,7.90407527966492,9.56385711892554
8.5,7.70720370809065,9.77101221364665
8.55,7.50984075987437,9.98875024352971
8.6,7.31201535752972,10.217873387268
8.65,7.113756053784,10.4592648676743
8.7,6.91509103675329,10.7138990813915
8.75,6.71604813517638,10.9828532105777
8.8,6.51665482370133,11.2673205560555
8.85,6.31693822821624,11.5686258703105
8.9,6.11692513121938,11.8882430122833
8.95,5.91664197722084,12.2278152933154
9,5.71611487817042,12.5891789328866
9.05,5.51536961890585,12.9743900897706
9.1,5.31443166261517,13.3857559711458
9.15,5.11332615630849,13.8258705349865
9.2,4.91207793629339,14.2976552651272
9.25,4.71071153364954,14.8044053712282
9.3,4.50925117969713,15.349841474576
9.35,4.30772081145517,15.9381662605536
9.4,4.10614407708433,16.5741244962849
9.45,3.90454434131134,17.2630628607768
9.5,3.70294469082984,18.0109825817056
9.55,3.50136793967408,18.8245718169415
9.6,3.29983663456222,19.7111941312338
9.65,3.09837306020482,20.678790893329
9.7,2.89699924457591,21.735622898255
9.75,2.69573696414285,22.8897191700956
9.8,2.4946077490519,24.1477993200319
9.85,2.2936328882667,25.5132554859159
9.9,2.09283343465657,26.9824605597363
9.95,1.89223021003195,28.5381115053611
10,1.6918438101242,30.1373755000201
10.05,1.49169460950749,31.6911486030617
10.1,1.29180276646,33.0289480276469
10.15,1.09218822776236,33.8434902512773
10.2,0.892870733430916,33.6162644535683
10.25,0.693869821383784,31.5578156566522
10.3,0.495204832037584,26.6805740556435
10.35,0.296894912832886,18.226442089427
10.4,0.0989590226863962,6.51812873817698
10.45,-0.0985840636317233,-6.46554738777179
10.5,-0.295715751197444,-17.9287572225592
10.55,-0.492417620710776,-26.0136390641108
10.6,-0.688671424353769,-30.5244471790837
10.65,-0.88445908173009,-32.2819763622637
10.7,-1.07976267588762,-32.2832219096972
10.75,-1.27456444942558,-31.3049060586307
10.8,-1.46884680068758,-29.8491820782774
10.85,-1.66259228004157,-28.2097762240205
10.9,-1.85578358624859,-26.5473583279384
10.95,-2.0484035629209,-24.9442753290583
11,-2.24043519507098,-23.4387731495191
11.05,-2.43186160575239,-22.0450330222684
11.1,-2.62266605279379,-20.7645344028371
11.15,-2.81283192562687,-19.5923859924933
11.2,-3.00234274220912,-18.5208047510403
11.25,-3.19118214604291,-17.5409949000691
11.3,-3.37933390329113,-16.6441339293711
11.35,-3.56678189999068,-15.8218626715376
11.4,-3.75351013936468,-15.0665023363635
11.45,-3.93950273923363,-14.371123736597
11.5,-4.12474392952705,-13.7295390460519
11.55,-4.30921804989589,-13.1362554527233
11.6,-4.49290954742643,-12.5864125178181
11.65,-4.67580297445615,-12.075715084459
11.7,-4.85788298649307,-11.6003679239645
11.75,-5.03913434023762,-11.1570151157956
11.8,-5.21954189170891,-10.7426853789827
11.85,-5.39909059447575,-10.3547436063745
11.9,-5.57776549799171,-9.99084835156149
11.95,-5.75555174603678,-9.64891478103637
12,-5.93243457526357,-9.32708251451083
12.05,-6.10839931385062,-9.0236877667543
12.1,-6.28343138026194,-8.73723923584819
12.15,-6.45751628211287,-8.46639723310923
12.2,-6.63063961514397,-8.20995560667681
12.25,-6.80278706230115,-7.96682606716815
12.3,-6.9739443929247,-7.73602457649085
12.35,-7.14409746204379,-7.51665950837847
12.4,-7.31323220978079,-7.30792133105463
12.45,-7.48133466086278,-7.10907359878002
12.5,-7.64839092424003,-6.91944507031437
12.55,-7.81438719281306,-6.73842279907614
12.6,-7.97930974326773,-6.5654460625649
12.65,-8.14314493601677,-6.40000101796996
12.7,-8.30587921524996,-6.24161598731362
12.75,-8.46749910909059,-6.0898572894067
12.8,-8.6279912298594,-5.94432554770844
12.85,-8.78734227444492,-5.80465241320848
12.9,-8.94553902478051,-5.67049764996485
12.95,-9.10256834842586,-5.54154653817371
13,-9.25841719925588,-5.41750755581387
13.05,-9.41307261825266,-5.29811030516896
13.1,-9.56652173440201,-5.18310365502371
13.15,-9.71875176569421,-5.07225407317581
13.2,-9.86975002022653,-4.96534412720179
13.25,-10.0195038974087,-4.86217113424623
13.3,-10.1680008892685,-4.76254594303991
13.35,-10.3152285818585,-4.66629183345243
13.4,-10.4611746567612,-4.5732435206986
13.45,-10.6058268926927,-4.48324625288701
13.5,-10.7491731672035,-4.39615499195946
13.55,-10.8912014584748,-4.31183366925151
13.6,-11.0318998472089,-4.23015450793183
13.65,-11.1712565186135,-4.15099740547392
13.7,-11.309259764478,-4.07424937009587
13.75,-11.4458979853379,-3.99980400578772
13.8,-11.5811596927309,-3.92756104114541
13.85,-11.7150335115359,-3.85742589775586
13.9,-11.8475081824023,-3.78930929434041
13.95,-11.9785725642573,-3.72312688327063
14,-12.1082156368976,-3.65879891642932
14.05,-12.236426503661,-3.59624993770681
14.1,-12.3631943941724,-3.53540849970285
14.15,-12.4885086671681,-3.47620690245288
14.2,-12.61235881339,-3.4185809522179
14.25,-12.7347344585532,-3.36246973857297
14.3,-12.8556253663791,-3.30781542820347
14.35,-12.9750214416954,-3.25456307397381
14.4,-13.092912733599,-3.2026604379713
14.45,-13.2092894386786,-3.1520578273521
14.5,-13.3241419042954,-3.10270794192654
14.55,-13.4374606319175,-3.05456573252031
14.6,-13.5492362805075,-3.00758826923699
14.65,-13.6594596699559,-2.96173461882713
14.7,-13.7681217845648,-2.91696573044084
14.75,-13.8752137765677,-2.87324432910561
14.8,-13.9807269696943,-2.8305348163289
14.85,-14.0846528627673,-2.78880317727803
14.9,-14.1869831333328,-2.7480168940369
14.95,-14.2877096413189,-2.70814486448211
15,-14.3868244327206,-2.66915732635981
